 #  Results from PENEPMA.
 #  Probability of emission of bremmstrahlung photons.
 #  1st column: E (eV).
 #  2nd and 3rd columns: probability density and STU (1/(eV*sr*electron)).

   9.000001E+01  6.977046E-07  2.324356E-09
   1.500000E+02  3.621522E-07  1.333312E-09
   2.100000E+02  2.436313E-07  1.048686E-09
   2.700000E+02  1.820670E-07  8.248631E-10
   3.300000E+02  1.446350E-07  6.858965E-10
   3.900000E+02  1.197722E-07  6.007651E-10
   4.500000E+02  1.015942E-07  4.832823E-10
   5.100001E+02  8.804022E-08  3.648657E-10
   5.700001E+02  7.776118E-08  3.264370E-10
   6.300001E+02  6.941603E-08  3.090149E-10
   6.900001E+02  6.288040E-08  3.285841E-10
   7.500001E+02  5.689532E-08  2.583247E-10
   8.100001E+02  5.222734E-08  2.702384E-10
   8.700001E+02  4.798184E-08  2.514995E-10
   9.300001E+02  4.434442E-08  2.208126E-10
   9.900001E+02  4.147187E-08  2.383457E-10
   1.050000E+03  3.865396E-08  2.207070E-10
   1.110000E+03  3.614469E-08  2.018520E-10
   1.170000E+03  3.401722E-08  2.033153E-10
   1.230000E+03  3.203053E-08  1.985403E-10
   1.290000E+03  3.025904E-08  1.869033E-10
   1.350000E+03  2.864346E-08  1.828162E-10
   1.410000E+03  2.729152E-08  1.631914E-10
   1.470000E+03  2.581963E-08  1.588134E-10
   1.530000E+03  2.454854E-08  1.546796E-10
   1.590000E+03  2.352682E-08  1.601883E-10
   1.650000E+03  2.237859E-08  1.565880E-10
   1.710000E+03  2.139779E-08  1.443871E-10
   1.770000E+03  2.053712E-08  1.413974E-10
   1.830000E+03  1.964594E-08  1.382680E-10
   1.890000E+03  1.889419E-08  1.356115E-10
   1.950000E+03  1.815402E-08  1.328497E-10
   2.010000E+03  1.748644E-08  1.304036E-10
   2.070000E+03  1.687862E-08  1.280446E-10
   2.130000E+03  1.627775E-08  1.258534E-10
   2.190000E+03  1.564822E-08  1.234706E-10
   2.250000E+03  1.513956E-08  1.213254E-10
   2.310000E+03  1.459421E-08  1.191476E-10
   2.370000E+03  1.408456E-08  1.170536E-10
   2.430000E+03  1.358759E-08  1.149367E-10
   2.490000E+03  1.324808E-08  1.135242E-10
   2.550000E+03  1.276409E-08  1.114748E-10
   2.610000E+03  1.234258E-08  1.095473E-10
   2.670000E+03  1.194822E-08  1.077043E-10
   2.730000E+03  1.168197E-08  1.066209E-10
   2.790000E+03  1.128114E-08  1.045910E-10
   2.850000E+03  1.097187E-08  1.032911E-10
   2.910000E+03  1.065796E-08  1.017698E-10
   2.970000E+03  1.038230E-08  1.131416E-10
   3.030000E+03  1.001784E-08  9.857480E-11
   3.090000E+03  9.786560E-09  9.750837E-11
   3.150000E+03  9.527913E-09  9.613845E-11
   3.210000E+03  9.241256E-09  9.472499E-11
   3.270000E+03  8.978897E-09  9.336391E-11
   3.330000E+03  8.775372E-09  9.233537E-11
   3.390000E+03  8.551793E-09  9.111012E-11
   3.450000E+03  8.257226E-09  8.946871E-11
   3.510000E+03  8.097971E-09  8.870040E-11
   3.570000E+03  7.927456E-09  8.770439E-11
   3.630000E+03  7.698806E-09  8.644610E-11
   3.690000E+03  7.527719E-09  8.548621E-11
   3.750000E+03  7.360826E-09  8.457997E-11
   3.810000E+03  7.168667E-09  8.337735E-11
   3.870000E+03  6.985149E-09  8.232294E-11
   3.930000E+03  6.855410E-09  8.162939E-11
   3.990000E+03  6.700828E-09  8.062563E-11
   4.050000E+03  6.550614E-09  7.972827E-11
   4.110000E+03  6.408907E-09  7.880026E-11
   4.170000E+03  6.239121E-09  7.780259E-11
   4.230000E+03  6.145495E-09  7.720542E-11
   4.290000E+03  5.977429E-09  7.612281E-11
   4.350000E+03  5.831664E-09  7.521127E-11
   4.410000E+03  5.706070E-09  7.437961E-11
   4.470000E+03  5.609998E-09  7.375928E-11
   4.530000E+03  5.428179E-09  7.252300E-11
   4.590000E+03  5.351363E-09  7.198497E-11
   4.650000E+03  5.252532E-09  7.130190E-11
   4.710000E+03  5.144603E-09  7.065057E-11
   4.770000E+03  5.019310E-09  6.973433E-11
   4.830000E+03  4.939334E-09  6.920920E-11
   4.890000E+03  4.818094E-09  6.835640E-11
   4.950000E+03  4.705916E-09  6.752478E-11
   5.010001E+03  4.642297E-09  6.708100E-11
   5.070001E+03  4.498023E-09  6.601552E-11
   5.130001E+03  4.468969E-09  6.584380E-11
   5.190001E+03  4.322860E-09  6.473352E-11
   5.250001E+03  4.276218E-09  6.439260E-11
   5.310001E+03  4.167517E-09  6.351821E-11
   5.370001E+03  4.062267E-09  6.272740E-11
   5.430001E+03  4.050226E-09  6.259244E-11
   5.490001E+03  3.955662E-09  6.184096E-11
   5.550001E+03  3.888779E-09  6.139530E-11
   5.610001E+03  3.826440E-09  6.090647E-11
   5.670001E+03  3.697647E-09  5.983933E-11
   5.730001E+03  3.661116E-09  5.956410E-11
   5.790001E+03  3.582516E-09  5.891986E-11
   5.850001E+03  3.494367E-09  5.817870E-11
   5.910001E+03  3.444330E-09  5.772416E-11
   5.970001E+03  3.371029E-09  5.713807E-11
   6.030001E+03  3.310996E-09  5.663064E-11
   6.090001E+03  3.241753E-09  5.606271E-11
   6.150001E+03  3.203601E-09  5.573472E-11
   6.210001E+03  3.166921E-09  5.538263E-11
   6.270001E+03  3.120041E-09  5.499676E-11
   6.330001E+03  3.046353E-09  5.428869E-11
   6.390001E+03  2.959267E-09  5.354588E-11
   6.450001E+03  2.918787E-09  5.319150E-11
   6.510001E+03  2.893391E-09  5.294322E-11
   6.570001E+03  2.817718E-09  5.225010E-11
   6.630001E+03  2.758565E-09  5.165941E-11
   6.690001E+03  2.697200E-09  5.106816E-11
   6.750001E+03  2.663294E-09  5.080421E-11
   6.810001E+03  2.630734E-09  5.046346E-11
   6.870001E+03  2.566225E-09  4.982470E-11
   6.930001E+03  2.537648E-09  4.958928E-11
   6.990001E+03  2.502439E-09  4.924580E-11
   7.050001E+03  2.431493E-09  4.854339E-11
   7.110001E+03  2.415827E-09  4.832650E-11
   7.170001E+03  2.373129E-09  4.788666E-11
   7.230001E+03  2.323813E-09  4.744280E-11
   7.290001E+03  2.306072E-09  4.725110E-11
   7.350001E+03  2.258297E-09  4.671734E-11
   7.410001E+03  2.215214E-09  4.628412E-11
   7.470001E+03  2.144117E-09  4.556814E-11
   7.530001E+03  2.133147E-09  4.544900E-11
   7.590001E+03  2.064871E-09  4.468927E-11
   7.650001E+03  2.078735E-09  4.488266E-11
   7.710001E+03  1.991601E-09  4.388409E-11
   7.770001E+03  1.983921E-09  4.379994E-11
   7.830001E+03  1.928250E-09  4.318725E-11
   7.890001E+03  1.887630E-09  4.276813E-11
   7.950001E+03  1.887333E-09  4.268580E-11
   8.010001E+03  1.838951E-09  4.216003E-11
   8.070001E+03  1.821433E-09  4.194784E-11
   8.130001E+03  1.794733E-09  4.164718E-11
   8.190001E+03  1.733088E-09  4.090866E-11
   8.250001E+03  1.713666E-09  4.066344E-11
   8.310001E+03  1.685780E-09  4.039126E-11
   8.370001E+03  1.646890E-09  3.987626E-11
   8.430001E+03  1.628727E-09  3.968996E-11
   8.490001E+03  1.580371E-09  3.907685E-11
   8.550001E+03  1.570645E-09  3.899459E-11
   8.610001E+03  1.547589E-09  3.865923E-11
   8.670001E+03  1.501902E-09  3.808484E-11
   8.730001E+03  1.503886E-09  3.810842E-11
   8.790001E+03  1.448923E-09  3.737707E-11
   8.850001E+03  1.444113E-09  3.739056E-11
   8.910001E+03  1.398924E-09  3.672371E-11
   8.970001E+03  1.398019E-09  3.677550E-11
   9.030001E+03  1.379997E-09  3.647456E-11
   9.090001E+03  1.346267E-09  3.605712E-11
   9.150001E+03  1.297142E-09  3.540093E-11
   9.210001E+03  1.312007E-09  3.558143E-11
   9.270001E+03  1.278776E-09  3.514065E-11
   9.330001E+03  1.246697E-09  3.470637E-11
   9.390001E+03  1.244456E-09  3.467164E-11
   9.450001E+03  1.195994E-09  3.400253E-11
   9.510001E+03  1.179560E-09  3.376586E-11
   9.570001E+03  1.165583E-09  3.349751E-11
   9.630001E+03  1.136829E-09  3.310299E-11
   9.690001E+03  1.120364E-09  3.287448E-11
   9.750001E+03  1.097172E-09  3.252138E-11
   9.810001E+03  1.072117E-09  3.216052E-11
   9.870001E+03  1.053461E-09  3.186619E-11
   9.930001E+03  1.026226E-09  3.144232E-11
   9.990001E+03  1.014993E-09  3.126475E-11
   1.005000E+04  1.010793E-09  3.122494E-11
   1.011000E+04  9.548690E-10  3.035344E-11
   1.017000E+04  9.601590E-10  3.041414E-11
   1.023000E+04  9.320452E-10  2.995989E-11
   1.029000E+04  9.107353E-10  2.960822E-11
   1.035000E+04  8.887971E-10  2.927700E-11
   1.041000E+04  8.960736E-10  2.938408E-11
   1.047000E+04  8.702539E-10  2.893726E-11
   1.053000E+04  8.504226E-10  2.862538E-11
   1.059000E+04  8.353332E-10  2.833423E-11
   1.065000E+04  8.086103E-10  2.790898E-11
   1.071000E+04  8.139475E-10  2.798191E-11
   1.077000E+04  7.718902E-10  2.726657E-11
   1.083000E+04  7.721565E-10  2.725792E-11
   1.089000E+04  7.380328E-10  2.664906E-11
   1.095000E+04  7.513821E-10  2.688208E-11
   1.101000E+04  7.254607E-10  2.639090E-11
   1.107000E+04  6.912339E-10  2.580039E-11
   1.113000E+04  6.752842E-10  2.546391E-11
   1.119000E+04  6.814843E-10  2.559036E-11
   1.125000E+04  6.636080E-10  2.525411E-11
   1.131000E+04  6.469483E-10  2.494498E-11
   1.137000E+04  6.305119E-10  2.461564E-11
   1.143000E+04  6.195029E-10  2.435647E-11
   1.149000E+04  6.080930E-10  2.413477E-11
   1.155000E+04  5.938635E-10  2.386833E-11
   1.161000E+04  5.677949E-10  2.330541E-11
   1.167000E+04  5.689627E-10  2.336479E-11
   1.173000E+04  5.337656E-10  2.264038E-11
   1.179000E+04  5.273249E-10  2.245643E-11
   1.185000E+04  5.256075E-10  2.243218E-11
   1.191000E+04  5.072933E-10  2.203551E-11
   1.197000E+04  4.966419E-10  2.183495E-11
   1.203000E+04  4.843075E-10  2.152993E-11
   1.209000E+04  4.796846E-10  2.143312E-11
   1.215000E+04  4.593523E-10  2.097700E-11
   1.221000E+04  4.454091E-10  2.065837E-11
   1.227000E+04  4.267674E-10  2.018298E-11
   1.233000E+04  4.208977E-10  2.007957E-11
   1.239000E+04  4.113799E-10  1.979663E-11
   1.245000E+04  4.010320E-10  1.955144E-11
   1.251000E+04  3.760940E-10  1.892001E-11
   1.257000E+04  3.727563E-10  1.886560E-11
   1.263000E+04  3.622854E-10  1.856551E-11
   1.269000E+04  3.560452E-10  1.840364E-11
   1.275000E+04  3.457402E-10  1.813243E-11
   1.281000E+04  3.253221E-10  1.757477E-11
   1.287000E+04  3.237391E-10  1.755391E-11
   1.293000E+04  3.072455E-10  1.706443E-11
   1.299000E+04  3.019470E-10  1.689848E-11
   1.305000E+04  2.853274E-10  1.644182E-11
   1.311000E+04  2.839219E-10  1.638108E-11
   1.317000E+04  2.733450E-10  1.606209E-11
   1.323000E+04  2.653043E-10  1.584107E-11
   1.329000E+04  2.515414E-10  1.541233E-11
   1.335000E+04  2.429855E-10  1.510815E-11
   1.341000E+04  2.251750E-10  1.457497E-11
   1.347000E+04  2.204691E-10  1.440760E-11
   1.353000E+04  2.110659E-10  1.407987E-11
   1.359000E+04  1.979785E-10  1.365260E-11
   1.365000E+04  1.822978E-10  1.310120E-11
   1.371000E+04  1.799248E-10  1.302008E-11
   1.377000E+04  1.717095E-10  1.266577E-11
   1.383000E+04  1.623291E-10  1.230642E-11
   1.389000E+04  1.586136E-10  1.215936E-11
   1.395000E+04  1.447391E-10  1.158911E-11
   1.401000E+04  1.315460E-10  1.099083E-11
   1.407000E+04  1.200903E-10  1.048183E-11
   1.413000E+04  1.142794E-10  1.021163E-11
   1.419000E+04  1.095907E-10  9.936952E-12
   1.425000E+04  9.911680E-11  9.481133E-12
   1.431000E+04  9.384126E-11  9.189309E-12
   1.437000E+04  8.386546E-11  8.664628E-12
   1.443000E+04  7.379524E-11  8.062998E-12
   1.449000E+04  6.756644E-11  7.716791E-12
   1.455000E+04  5.793132E-11  7.064682E-12
   1.461000E+04  4.721416E-11  6.316478E-12
   1.467000E+04  4.152353E-11  5.854364E-12
   1.473000E+04  2.840758E-11  4.714475E-12
   1.479000E+04  2.335244E-11  4.124928E-12
   1.485000E+04  1.554638E-11  3.241324E-12
   1.491000E+04  8.899639E-12  2.247848E-12
   1.497000E+04  3.486579E-12  1.373416E-12
